i	lambda [nm]	el [W/(cm2nm)]	Photonen [cm-2 nm^-1 s-1]
1	155	4.89E-07	3.81E+11
2	160	4.89E-07	3.94E+11
3	170	4.89E-07	4.18E+11
4	180	1.91E-06	1.72E+12
5	190	2.45071E-06	2.34E+12
6	200	3.54E-06	3.55E+12
7	210	4.15E-06	4.38E+12
8	220	5.01556E-06	5.55E+12
9	230	5.89E-06	6.81E+12
10	240	6.22255E-06	7.51E+12
11	250	6.41E-06	8.06E+12
12	260	7.91E-06	1.03E+13
13	270	9.3909E-06	1.27E+13
14	280	1.13523E-05	1.60E+13
15	290	1.25592E-05	1.83E+13
16	300	1.48223E-05	2.24E+13
17	310	1.79907E-05	2.81E+13
18	320	1.94994E-05	3.14E+13
19	330	2.11573E-05	3.51E+13
20	340	2.15082E-05	3.68E+13
21	350	2.28082E-05	4.02E+13
22	360	2.40256E-05	4.35E+13
23	370	2.79484E-05	5.21E+13
24	380	3.10693E-05	5.94E+13
25	390	3.39798E-05	6.67E+13
26	400	3.52868E-05	7.11E+13
27	410	3.9113E-05	8.07E+13
28	420	4.20322E-05	8.89E+13
29	430	4.4141E-05	9.56E+13
30	440	4.78637E-05	1.06E+14
31	450	5.17881E-05	1.17E+14
32	460	5.48039E-05	1.27E+14
33	470	5.77178E-05	1.37E+14
34	480	6.2951E-05	1.52E+14
35	490	6.56668E-05	1.62E+14
36	500	6.79802E-05	1.71E+14
37	510	6.86842E-05	1.76E+14
38	520	7.21052E-05	1.89E+14
39	530	7.50209E-05	2.00E+14
40	540	7.95471E-05	2.16E+14
41	550	8.14646E-05	2.26E+14
42	560	8.48277E-05	2.39E+14
43	570	8.61821E-05	2.47E+14
44	580	8.55821E-05	2.50E+14
45	590	9.26766E-05	2.75E+14
46	600	9.46205E-05	2.86E+14
47	610	9.5238E-05	2.92E+14
48	620	0.000100018	3.12E+14
49	630	0.000100771	3.20E+14
50	640	0.000102233	3.29E+14
51	650	0.000104592	3.42E+14
52	660	0.000106299	3.53E+14
53	670	0.000108213	3.65E+14
54	680	0.000110024	3.77E+14
55	690	0.000112739	3.92E+14
56	700	0.000116153	4.09E+14
57	710	0.0001211	4.33E+14
58	720	0.000123697	4.48E+14
59	730	0.000124809	4.59E+14
60	740	0.000127223	4.74E+14
61	750	0.000131146	4.95E+14
62	760	0.000131448	5.03E+14
63	770	0.000132956	5.15E+14
64	780	0.000135069	5.30E+14
65	790	0.000138086	5.49E+14
66	800	0.000140198	5.65E+14
67	810	0.000142811	5.82E+14
68	820	0.000145523	6.01E+14
69	830	0.000146044	6.10E+14
70	840	0.000147837	6.25E+14
71	850	0.000150156	6.43E+14
72	860	0.000151665	6.57E+14
73	870	0.000152268	6.67E+14
74	880	0.000153173	6.79E+14
75	890	0.000154333	6.91E+14
76	900	0.000155437	7.04E+14
77	910	0.000156038	7.15E+14
78	920	0.00015651	7.25E+14
79	930	0.000157398	7.37E+14
80	940	0.000158454	7.50E+14
81	950	0.000159208	7.61E+14
82	960	0.000159661	7.72E+14
83	970	0.000160065	7.82E+14
84	980	0.000161019	7.94E+14
85	990	0.000161019	8.02E+14
86	1000	0.000161019	8.11E+14
87	1010	0.000161019	8.19E+14
88	1020	0.000161019	8.27E+14
89	1030	0.000161019	8.35E+14
90	1040	0.000161019	8.43E+14
91	1050	0.000160868	8.50E+14
92	1060	0.000159812	8.53E+14
93	1070	0.000159812	8.61E+14
94	1080	0.000159812	8.69E+14
95	1090	0.000159208	8.74E+14
96	1100	0.000159208	8.82E+14
97	1110	0.000158756	8.87E+14
98	1120	0.000158152	8.92E+14
99	1130	0.000158001	8.99E+13
100	1140	0.000157398	9.03E+14
101	1150	0.000155587	9.01E+14
102	1160	0.000155587	9.09E+14
103	1170	0.00015438	9.09E+14
104	1180	0.000153475	9.12E+14
105	1190	0.000153023	9.17E+14
106	1200	0.000152872	9.23E+14
